"Time [ms]","FluxLinkage(PhaseA) [Wb]"
0,0.249536364462206
0.02,0.249405042704643
0.04,0.249450673300416
0.06,0.24965666099863
0.08,0.249969561040222
0.1,0.250325315724617
0.12,0.250717580983121
0.14,0.251206962171329
0.16,0.251817394156971
0.18,0.252515881554675
0.2,0.253235061015961
0.22,0.253998534527793
0.24,0.254887789628765
0.26,0.255965622997547
0.28,0.257188386877375
0.3,0.258141086113484
0.32,0.259278227490484
0.34,0.260625540687017
0.36,0.262152986309681
0.38,0.263719585516019
0.4,0.265340047506969
0.42,0.26711348084554
0.44,0.269106340107967
0.46,0.271227236119258
0.48,0.273397925207189
0.5,0.275692130753914
0.52,0.278268292334468
0.54,0.281166210931972
0.56,0.284202788442471
0.58,0.287016227111319
0.6,0.29018351034659
0.62,0.29370127468926
0.64,0.297466164251828
0.66,0.301357547567465
0.68,0.305465986738871
0.700000000000001,0.30991516274523
0.720000000000001,0.314733393002038
0.740000000000001,0.319833979186059
0.760000000000001,0.325161388211075
0.780000000000001,0.33093785136912
0.800000000000001,0.33732378582639
0.820000000000001,0.344469484814812
0.840000000000001,0.351938654775783
0.860000000000001,0.359281199385255
0.880000000000001,0.367423201233955
0.900000000000001,0.376327363432166
0.920000000000001,0.386016466905701
0.940000000000001,0.396520070275265
0.960000000000001,0.40797468735404
0.980000000000001,0.420315504798893
1,0.433343727715274
1.02,0.447126793588908
1.04,0.46142315529614
1.06,0.475965419004847
1.08,0.490363387468638
1.1,0.504303405144837
1.12,0.517101662291699
1.14,0.52846566959712
1.16,0.539101822698648
1.18,0.549228228273182
1.2,0.559049726768288
1.22,0.56906466243311
1.24,0.579528956150264
1.26,0.590373673939394
1.28,0.601365570534253
1.3,0.612472819431761
1.32,0.623855793991808
1.34,0.635664766948393
1.36,0.648223367559055
1.38,0.661232982587733
1.4,0.673616305398951
1.42,0.685760265972567
1.44,0.698332566621413
1.46,0.711400258511215
1.48,0.724059318424453
1.5,0.736814096415263
1.52,0.749549304428065
1.54,0.761767039966245
1.56,0.773793744247336
1.58,0.785526783183085
1.6,0.79718935734188
1.62,0.808657967144113
1.64,0.820128840975936
1.66,0.831712321257717
1.68,0.842833766367375
1.7,0.853499538005389
1.72,0.86430424328293
1.74,0.875442702213237
1.76,0.886774548568113
1.78,0.898232299710383
1.8,0.909770576277124
1.82,0.921368497010573
1.84,0.933073290171785
1.86,0.94456210918048
1.88,0.956050728532695
1.9,0.967505271980314
1.92,0.979127914393813
1.94,0.990594100705732
1.96,1.00162667128059
1.98,1.01213019213268
2,1.02248647364562
2.02,1.03252840519927
2.04,1.04263270319909
2.06,1.0525144234525
2.08,1.06212225236456
2.1,1.071162637192
2.12,1.07982969029766
2.14,1.08811551132281
2.16,1.09607250511194
2.18,1.10376704991706
2.2,1.11122991234849
2.22,1.11858040200048
2.24,1.12544472136142
2.26,1.13209137751463
2.28,1.13861131855314
2.3,1.14501172473961
2.32,1.15138739479477
2.34,1.15794561409761
2.36,1.16461749996679
2.38,1.1708870315983
2.40000000000001,1.17707717075196
2.42000000000001,1.18315648711384
2.44000000000001,1.18914053773701
2.46000000000001,1.19502049819587
2.48000000000001,1.2007251946859
2.50000000000001,1.20623308018994
2.52000000000001,1.21099531624773
2.54000000000001,1.21542711628765
2.56000000000001,1.21962540890139
2.58000000000001,1.22370098012082
2.60000000000001,1.22770663782592
2.62000000000001,1.23160030701
2.64000000000001,1.23538559504649
2.66000000000001,1.23907978206323
2.68000000000001,1.24260404932864
2.70000000000001,1.24598122756212
2.72000000000001,1.2492607543149
2.74000000000001,1.25247544768641
2.76000000000001,1.25557754225152
2.78000000000001,1.25849151386804
2.80000000000001,1.26125254404431
2.82000000000001,1.2638105357566
2.84000000000001,1.266144645973
2.86000000000001,1.26826035593496
2.88000000000001,1.2701830907162
2.90000000000001,1.27179228327421
2.92000000000001,1.27299795408878
2.94000000000001,1.27387906305121
2.96000000000001,1.27445480056792
2.98000000000001,1.27475249083903
3.00000000000001,1.2748443989
3.02000000000001,1.27480778015816
3.04000000000001,1.27471064998775
3.06000000000001,1.2745533936269
3.08000000000001,1.27426111118392
3.10000000000001,1.27408782283735
3.12000000000001,1.27402683603603
3.14000000000001,1.27403324112661
3.16000000000001,1.27414708654218
3.18000000000001,1.2743510671746
3.20000000000001,1.27455884600027
3.22000000000001,1.27468634281506
3.24000000000001,1.27481337815247
3.26000000000001,1.27486436975919
3.28000000000001,1.27470935378931
3.30000000000001,1.27430159198085
3.32000000000001,1.27362357622682
3.34000000000001,1.27266299005813
3.36000000000001,1.271357784979
3.38000000000001,1.26976133601865
3.40000000000001,1.26798453243481
3.42000000000001,1.26595368908859
3.44000000000001,1.26367111727938
3.46000000000001,1.26114641208081
3.48000000000001,1.25842885019633
3.50000000000001,1.25558625639991
3.52000000000001,1.25260653357147
3.54000000000001,1.24950057727298
3.56000000000001,1.24637690052365
3.58000000000001,1.24313685770463
3.60000000000001,1.23973825907239
3.62000000000001,1.23612794155004
3.64000000000001,1.23237731709239
3.66000000000001,1.22855561200645
3.68000000000001,1.22464471522763
3.70000000000001,1.22065647068377
3.72000000000001,1.21641833090909
3.74000000000001,1.21182711691056
3.76000000000001,1.20680009237201
3.78000000000001,1.20143076646241
3.80000000000001,1.19571003191852
3.82000000000001,1.18961101067935
3.84000000000001,1.18319049353112
3.86000000000001,1.17651575908814
3.88000000000001,1.16965213444973
3.90000000000001,1.16211859420105
3.92000000000001,1.15411364113745
3.94000000000001,1.14652983245174
3.96000000000001,1.13953637492272
3.98000000000001,1.13275511941022
4.00000000000001,1.12583964752687
4.02000000000001,1.11880254437985
4.04000000000001,1.11156706593716
4.06000000000001,1.10429388608559
4.08000000000001,1.0970032087852
4.10000000000001,1.0895064346742
4.12000000000001,1.08174554797016
4.14000000000001,1.07357458751653
4.16000000000001,1.06504315011282
4.18000000000001,1.05600472050212
4.20000000000001,1.04653271439463
4.22000000000001,1.03680400734394
4.24000000000001,1.02694713438588
4.26000000000001,1.01690368244286
4.28000000000001,1.00658923632983
4.30000000000001,0.995781383828547
4.32000000000001,0.984762993007325
4.34000000000001,0.973465310970921
4.36000000000001,0.962052908382778
4.38000000000001,0.950575242247081
4.40000000000001,0.939052874828988
4.42000000000001,0.927598189856409
4.44000000000001,0.916197535911346
4.46000000000001,0.904778593012118
4.48000000000001,0.89330912640246
4.50000000000001,0.882020517519333
4.52000000000001,0.870915681614414
4.54000000000001,0.860258256300894
4.56000000000001,0.849437199934937
4.58000000000001,0.838408922276713
4.60000000000001,0.827234605810562
4.62000000000001,0.815879404602815
4.64000000000001,0.804283348168254
4.66000000000001,0.792341042728501
4.68000000000001,0.779936782822318
4.70000000000001,0.767631265231453
4.72000000000001,0.755335487511552
4.74000000000001,0.741900936883404
4.76000000000001,0.728421776762867
4.78000000000001,0.715759953720363
4.80000000000001,0.703687944000254
4.82000000000001,0.691885082650004
4.84000000000001,0.680420757305364
4.86000000000001,0.669217178988259
4.88000000000001,0.657462290688041
4.90000000000001,0.645951776087242
4.92000000000001,0.634861361810937
4.94000000000001,0.624238315787273
4.96000000000001,0.613970137842171
4.98000000000001,0.603915419567024
5.00000000000001,0.593771775060332
5.02000000000001,0.583282674929367
5.04000000000001,0.572963934622065
5.06000000000001,0.562857977701698
5.08000000000001,0.552938297819182
5.10000000000001,0.542604555006311
5.12000000000001,0.530918334740475
5.14000000000001,0.518017668269398
5.16000000000001,0.504208717423488
5.18000000000001,0.490138866975953
5.20000000000001,0.475779451793198
5.22000000000001,0.461327652870872
5.24000000000001,0.447024287454817
5.26000000000001,0.43326611784647
5.28000000000001,0.420221124603938
5.30000000000001,0.407538595288545
5.32000000000001,0.396005408210565
5.34000000000001,0.385596771771637
5.36000000000001,0.37608280368925
5.38000000000001,0.367163065112116
5.40000000000001,0.358768010993778
5.42000000000001,0.350972461447289
5.44000000000001,0.343807250275698
5.46000000000001,0.337152717284392
5.48000000000001,0.330843710484747
5.50000000000001,0.324959935555326
5.52000000000001,0.31951481496561
5.54000000000001,0.314520821954101
5.56000000000001,0.309824418556816
5.58000000000001,0.305043784221607
5.60000000000001,0.300730461470357
5.62000000000001,0.296783082700373
5.64000000000001,0.293144739148941
5.66000000000001,0.289703193562664
5.68000000000001,0.286407627590257
5.70000000000001,0.283348257304052
5.72000000000001,0.28057490871695
5.74000000000001,0.277967644939622
5.76000000000001,0.275467415376821
5.78000000000001,0.273107290237954
5.80000000000001,0.27092233419615
5.82000000000001,0.268987404641866
5.84000000000001,0.267121543085608
5.86000000000001,0.265126757341837
5.88000000000001,0.263411491051528
5.90000000000001,0.261899807544286
5.92000000000001,0.260535072059145
5.94000000000001,0.259232353582786
5.96000000000001,0.257999697836699
5.98000000000001,0.25688916186386
6.00000000000001,0.25591117303552
6.02000000000001,0.255013183695031
6.04000000000001,0.254149687619628
6.06000000000001,0.253394257677492
6.08000000000001,0.252761944271395
6.10000000000001,0.252321056069577
6.12000000000001,0.251823039130706
6.14000000000001,0.251196784050079
6.16000000000001,0.250763984108181
6.18000000000001,0.250457635508203
6.20000000000001,0.250273588980052
6.22000000000001,0.250128382880836
6.24000000000001,0.250017279712362
6.26000000000001,0.250024571087122
6.28000000000001,0.250163713790254
6.30000000000001,0.250347739506564
6.32000000000001,0.250550118314296
6.34000000000001,0.250853363688922
6.36000000000001,0.251315859173308
6.38000000000002,0.252003621098814
6.40000000000002,0.252504352829445
6.42000000000002,0.252925836729584
6.44000000000002,0.253592141240825
6.46000000000002,0.25441785186585
6.48000000000002,0.255331058228354
6.50000000000002,0.256267639450794
6.52000000000002,0.257291131288301
6.54000000000002,0.258450830487269
6.56000000000002,0.25973767869389
6.58000000000002,0.261091835446515
6.60000000000002,0.262505397282357
6.62000000000002,0.264078424392818
6.64000000000002,0.265877107702565
6.66000000000002,0.267978771233383
6.68000000000002,0.26983797892192
6.70000000000002,0.271745728244122
6.72000000000002,0.273935016452994
6.74000000000002,0.276308232490101
6.76000000000002,0.278835013697909
6.78000000000002,0.281481836233705
6.80000000000002,0.28429932432373
6.82000000000002,0.287397637115182
6.84000000000002,0.290748231033063
6.86000000000002,0.294251836426065
6.88000000000002,0.297946002298008
6.90000000000002,0.301958193453324
6.92000000000002,0.306404895020267
6.94000000000002,0.311406615609022
6.96000000000002,0.316104134821506
6.98000000000002,0.321104739274882
7.00000000000002,0.326652602405056
7.02000000000002,0.332688641564686
7.04000000000002,0.339150085563726
7.06000000000002,0.345995642624855
7.08000000000002,0.353388663943402
7.10000000000002,0.36136168487364
7.12000000000002,0.369930352638827
7.14000000000002,0.379054145048403
7.16000000000002,0.38886620518114
7.18000000000002,0.3996072841202
7.20000000000002,0.411392153743054
7.22000000000002,0.424199034592949
7.24000000000002,0.436989799701012
7.26000000000002,0.450375986059885
7.28000000000002,0.463920000957357
7.30000000000002,0.477342140329063
7.32000000000002,0.490567717958592
7.34000000000002,0.50340832173832
7.36000000000002,0.515735262923178
7.38000000000002,0.527453551730634
7.40000000000002,0.538363734014134
7.42000000000002,0.548450708437092
7.44000000000002,0.558024095533237
7.46000000000002,0.568181392061893
7.48000000000002,0.57899165122244
7.50000000000002,0.590130443389555
7.52000000000002,0.601028710578779
7.54000000000002,0.611915216290059
7.56000000000002,0.622888499832291
7.58000000000002,0.633996784216722
7.60000000000002,0.645470541501315
7.62000000000002,0.657318556674961
7.64000000000002,0.669555880646008
7.66000000000002,0.681337911903527
7.68000000000002,0.693569120246556
7.70000000000002,0.705972483188351
7.72000000000002,0.718664525219599
7.74000000000002,0.731618834813361
7.76000000000002,0.744864365495588
7.78000000000002,0.758147756087837
7.80000000000002,0.770249961272833
7.82000000000002,0.782405685909713
7.84000000000002,0.794402693385155
7.86000000000002,0.806176126735853
7.88000000000002,0.817744315393698
7.90000000000001,0.829141983900128
7.92000000000001,0.840427328311254
7.94000000000001,0.851328866752432
7.96000000000001,0.862142162457496
7.98000000000001,0.873018998769614
8.00000000000001,0.884211097117586
8.02000000000001,0.895569335025195
8.04000000000001,0.907010037618869
8.06000000000001,0.918569116898944
8.08000000000001,0.929936500010247
8.10000000000001,0.941365145426669
8.12000000000001,0.952759521599312
8.14,0.964102638324352
8.16,0.975315747623568
8.18,0.986410000625585
8.2,0.997313093585061
8.22,1.00784409884693
8.24,1.01786412033199
8.26,1.0277365422849
8.28,1.03779799355188
8.3,1.04755444738069
8.32,1.05707353132334
8.34,1.06613035337146
8.36,1.07467411179263
8.38,1.08292784828317
8.39999999999999,1.09085228964019
8.41999999999999,1.0985418844431
8.43999999999999,1.10601984470607
8.45999999999999,1.11339802404618
8.47999999999999,1.12065653794334
8.49999999999999,1.12769102775589
8.51999999999999,1.13458906879389
8.53999999999999,1.14132756042774
8.55999999999999,1.14823361608974
8.57999999999999,1.15561142908426
8.59999999999999,1.16327921760969
8.61999999999999,1.17047552831399
8.63999999999998,1.17707990689712
8.65999999999998,1.1835731929343
8.67999999999998,1.18985991163328
8.69999999999998,1.19587019636792
8.71999999999998,1.20155617885646
8.73999999999998,1.20693514657137
8.75999999999998,1.21199167894899
8.77999999999998,1.21663707099608
8.79999999999998,1.22095158495976
8.81999999999998,1.22502702619444
8.83999999999998,1.22894992393532
8.85999999999998,1.23283959102388
8.87999999999997,1.23668896198371
8.89999999999997,1.2403933091434
8.91999999999997,1.24388391781577
8.93999999999997,1.24718481849298
8.95999999999997,1.25029622959563
8.97999999999997,1.25330990320474
8.99999999999997,1.25622700296346
9.01999999999997,1.25901289761187
9.03999999999997,1.26165763506693
9.05999999999997,1.26411921912491
9.07999999999997,1.26636597143863
9.09999999999997,1.26841583318163
9.11999999999996,1.27023312980331
9.13999999999996,1.27179262432535
9.15999999999996,1.27300983103249
9.17999999999996,1.27387500023338
9.19999999999996,1.27446451641408
9.21999999999996,1.27479429700458
9.23999999999996,1.2749042039039
9.25999999999996,1.27485500470606
9.27999999999996,1.27471489961134
9.29999999999996,1.27456289716666
9.31999999999996,1.2743405649061
9.33999999999996,1.27413714085536
9.35999999999996,1.27401704489702
9.37999999999995,1.273979468357
9.39999999999995,1.27405142342289
9.41999999999995,1.27426814704146
9.43999999999995,1.27458004581
9.45999999999995,1.27470931208525
9.47999999999995,1.27476696917991
9.49999999999995,1.27473592667643
9.51999999999995,1.27454714837181
9.53999999999995,1.27419433282457
9.55999999999995,1.27356820594154
9.57999999999995,1.27263826164028
9.59999999999995,1.27137085451741
9.61999999999994,1.26973645662142
9.63999999999994,1.26782270513252
9.65999999999994,1.26570751381047
9.67999999999994,1.2633938460826
9.69999999999994,1.26084088961126
9.71999999999994,1.25805896530997
9.73999999999994,1.25511818423793
9.75999999999994,1.25200719103716
9.77999999999994,1.24880000239643
9.79999999999994,1.24554956887082
9.81999999999994,1.24223220587586
9.83999999999994,1.23876387723901
9.85999999999993,1.23511237926481
9.87999999999993,1.23139345549875
9.89999999999993,1.22758281997149
9.91999999999993,1.22365792665656
9.93999999999993,1.2196588051427
9.95999999999993,1.21553034914326
9.97999999999993,1.21111714768722
9.99999999999993,1.20634431951331
10.0199999999999,1.20080163116668
10.0399999999999,1.19501050522465
10.0599999999999,1.18895139025931
10.0799999999999,1.18262974958745
10.0999999999999,1.17607323607
10.1199999999999,1.16931443561189
10.1399999999999,1.16241580657108
10.1599999999999,1.15512411576681
10.1799999999999,1.14802309972154
10.1999999999999,1.14121471101952
10.2199999999999,1.13443272904799
10.2399999999999,1.12762213905919
10.2599999999999,1.12076314252171
10.2799999999999,1.11375918738071
10.2999999999999,1.10640872560316
10.3199999999999,1.09905039045401
10.3399999999999,1.0915552866336
10.3599999999999,1.08369040675949
10.3799999999999,1.07562958674294
10.3999999999999,1.06731211207567
10.4199999999999,1.05843107013528
10.4399999999999,1.04909674317009
10.4599999999999,1.03952177455802
10.4799999999999,1.02989348564926
10.4999999999999,1.01972482409519
10.5199999999999,1.00922706569572
10.5399999999999,0.998272723362419
10.5599999999999,0.986901157095063
10.5799999999999,0.975419804080011
10.5999999999999,0.963788734965129
10.6199999999999,0.952099202888589
10.6399999999999,0.94055289327094
10.6599999999999,0.928914753902827
10.6799999999999,0.9172795288563
10.6999999999999,0.905809397669797
10.7199999999999,0.894282529504093
10.7399999999999,0.882889704216829
10.7599999999999,0.871574658511702
10.7799999999999,0.860837133626727
10.7999999999999,0.850387040182151
10.8199999999999,0.839745020750289
10.8399999999999,0.828617639641391
10.8599999999999,0.817188843554856
10.8799999999999,0.805709379092918
10.8999999999999,0.794005270164602
10.9199999999999,0.782203541651215
10.9399999999999,0.770093854795312
10.9599999999999,0.757954968377815
10.9799999999999,0.745545436860472
10.9999999999999,0.732913334798583
11.0199999999999,0.720565839853003
11.0399999999999,0.708253097253351
11.0599999999999,0.695988661620704
11.0799999999999,0.684386335009972
11.0999999999999,0.673138936894306
11.1199999999999,0.661400822431804
11.1399999999999,0.648922546233309
11.1599999999999,0.636810948300696
11.1799999999999,0.625556553422668
11.1999999999999,0.614919025342365
11.2199999999999,0.604667844023414
11.2399999999999,0.594443798541764
11.2599999999999,0.584065388599199
11.2799999999999,0.573885499996759
11.2999999999999,0.564121699105613
11.3199999999999,0.554599409157864
11.3399999999999,0.544217652333324
11.3599999999999,0.532597408284879
11.3799999999999,0.519271653057238
11.3999999999999,0.50453055515014
11.4199999999999,0.489073481115251
11.4399999999999,0.473367548298861
11.4599999999999,0.4578468194431
11.4799999999999,0.443101205218501
11.4999999999999,0.429109471977408
11.5199999999999,0.416073215744444
11.5399999999999,0.403962890841356
11.5599999999999,0.392869214084171
11.5799999999999,0.382700660089311
11.5999999999999,0.373285058602846
11.6199999999999,0.364593700127724
11.6399999999999,0.356685725000901
11.6599999999999,0.349594689320029
11.6799999999999,0.342303213449537
11.6999999999999,0.335358387053722
11.7199999999999,0.329222529728458
11.7399999999999,0.323678543041946
11.7599999999999,0.318497441160942
11.7799999999999,0.313517261552365
11.7999999999999,0.308817373841226
11.8199999999999,0.304490820226671
11.8399999999999,0.300511724886548
11.8599999999999,0.296742216681153
11.8799999999999,0.293088177180819
11.8999999999999,0.28967482355716
11.9199999999999,0.286624263553334
11.9399999999999,0.283944568147602
11.9599999999998,0.280940720735537
11.9799999999998,0.278082767429176
11.9999999999998,0.275574476740864
12.0199999999998,0.273342225086197
12.0399999999998,0.271213464203635
12.0599999999998,0.269129811503016
12.0799999999998,0.267168440413087
12.0999999999998,0.265418648570648
12.1199999999998,0.263814178466527
12.1399999999998,0.262261086086157
12.1599999999998,0.260753113956674
12.1799999999998,0.259412222212399
12.1999999999998,0.258269696160319
12.2199999999998,0.257320361957738
12.2399999999998,0.256054825930581
12.2599999999998,0.254932442557367
12.2799999999998,0.254004764953932
12.2999999999998,0.253215445536814
12.3199999999998,0.25248417628677
12.3399999999998,0.251770641534935
12.3599999999998,0.25114692019742
12.3799999999998,0.25066061377927
