"Time [ms]","FluxLinkage(PhaseA) [Wb]"
0,0.356567216149632
0.02,0.356380472712357
0.04,0.356445749056417
0.06,0.35674038943335
0.08,0.357187953793474
0.1,0.357696832948942
0.12,0.358257958295194
0.14,0.358958006033246
0.16,0.359831191909054
0.18,0.360830326219075
0.2,0.361859067802722
0.22,0.362951193494837
0.24,0.36422326338972
0.26,0.365765081162314
0.28,0.367514210160271
0.3,0.368877
0.32,0.370503692708865
0.34,0.372430976639273
0.36,0.37461593122602
0.38,0.376856879650031
0.4,0.37917485711846
0.42,0.381711630347144
0.44,0.384562209964751
0.46,0.387595766796541
0.48,0.390700429968182
0.5,0.393981620388144
0.52,0.397665805265419
0.54,0.401809715233858
0.56,0.406151511750232
0.58,0.410174039402599
0.6,0.414702413185442
0.62,0.419731782487032
0.64,0.425114337631709
0.66,0.43067702174055
0.68,0.436549642590592
0.700000000000001,0.442908484591074
0.720000000000001,0.449793698051492
0.740000000000001,0.457081687231173
0.760000000000001,0.46469065884156
0.780000000000001,0.47293598350159
0.800000000000001,0.482040445945796
0.820000000000001,0.49221415960391
0.840000000000001,0.502791767525863
0.860000000000001,0.513128837609799
0.880000000000001,0.524500276778139
0.900000000000001,0.536739377633016
0.920000000000001,0.549643875780956
0.940000000000001,0.563209735888799
0.960000000000001,0.577300766048912
0.980000000000001,0.591315481557465
1,0.604893221407892
1.02,0.618135465227719
1.04,0.631133926642137
1.06,0.643905865996664
1.08,0.656012332264755
1.1,0.667692971224027
1.12,0.678896915037564
1.14,0.689819081470111
1.16,0.700934165818323
1.18,0.712187898594651
1.2,0.723599494830468
1.22,0.73508859026852
1.24,0.746766392382751
1.26,0.758718424257616
1.28,0.770875491443358
1.3,0.783056779775731
1.32,0.795153870532228
1.34,0.807074900721281
1.36,0.81912437798277
1.38,0.831312501904387
1.4,0.843101227583095
1.42,0.85460282274136
1.44,0.866232353350013
1.46,0.878005500525431
1.48,0.889819195275892
1.5,0.901806948948848
1.52,0.914026112334044
1.54,0.926297606900355
1.56,0.938557871960125
1.58,0.950711134208938
1.6,0.962672418297572
1.62,0.974546646402874
1.64,0.986336413226222
1.66,0.998125114162826
1.68,1.00952015061441
1.7,1.02079306910514
1.72,1.03213884213151
1.74,1.043501617781
1.76,1.05475338402382
1.78,1.06582296320474
1.8,1.07675231566242
1.82,1.08762433072944
1.84,1.09836005664265
1.86,1.10886233320327
1.88,1.11910781120199
1.9,1.12921528739509
1.92,1.13922316581205
1.94,1.14911793774129
1.96,1.15858184453577
1.98,1.16784010706989
2,1.1769367616592
2.02,1.18578456748712
2.04,1.19449375975872
2.06,1.20305817194572
2.08,1.21141998585998
2.1,1.21948670508758
2.12,1.22723354036997
2.14,1.2345703396864
2.16,1.24151902669336
2.18,1.24818071423035
2.2,1.2545911424676
2.22,1.26081557655186
2.24,1.26663114376333
2.26,1.27220803696114
2.28,1.27761035609514
2.3,1.28286767183215
2.32,1.28792019686187
2.34,1.29283789033227
2.36,1.29762119112277
2.38,1.30209002801319
2.40000000000001,1.30638117765853
2.42000000000001,1.31048439970469
2.44000000000001,1.31442359140516
2.46000000000001,1.31831271168177
2.48000000000001,1.3219690166058
2.50000000000001,1.32550575643975
2.52000000000001,1.3286942926049
2.54000000000001,1.33173606843363
2.56000000000001,1.33463655375865
2.58000000000001,1.33742737563266
2.60000000000001,1.34012988510404
2.62000000000001,1.34273952002449
2.64000000000001,1.34526913377012
2.66000000000001,1.34774560401096
2.68000000000001,1.35011635950875
2.70000000000001,1.352390156832
2.72000000000001,1.35459348505179
2.74000000000001,1.35673323523163
2.76000000000001,1.35877532455333
2.78000000000001,1.36066830336128
2.80000000000001,1.36243320178996
2.82000000000001,1.36408037405604
2.84000000000001,1.36559048689035
2.86000000000001,1.36695261325143
2.88000000000001,1.36817119474059
2.90000000000001,1.36920795666204
2.92000000000001,1.37001302092874
2.94000000000001,1.37061797961728
2.96000000000001,1.37103424322491
2.98000000000001,1.37128217097906
3.00000000000001,1.37139417297122
3.02000000000001,1.37140570566329
3.04000000000001,1.37136298145933
3.06000000000001,1.3712763936801
3.08000000000001,1.37108834087544
3.10000000000001,1.37097140130549
3.12000000000001,1.37093159625721
3.14000000000001,1.37093507851487
3.16000000000001,1.37100206275359
3.18000000000001,1.37111996413574
3.20000000000001,1.37123397880845
3.22000000000001,1.37129067294563
3.24000000000001,1.37133552993825
3.26000000000001,1.37132581612212
3.28000000000001,1.37118079055045
3.30000000000001,1.37087778319332
3.32000000000001,1.37042488938273
3.34000000000001,1.36981628005083
3.36000000000001,1.36900459258537
3.38000000000001,1.36799471413998
3.40000000000001,1.36685806290366
3.42000000000001,1.36554931800243
3.44000000000001,1.36406419878605
3.46000000000001,1.3624031235004
3.48000000000001,1.36058974090001
3.50000000000001,1.35864875679955
3.52000000000001,1.35658076429506
3.54000000000001,1.35440792827887
3.56000000000001,1.35220789217956
3.58000000000001,1.34992901528774
3.60000000000001,1.3475598599653
3.62000000000001,1.34506965197444
3.64000000000001,1.34248060614855
3.66000000000001,1.33983393217219
3.68000000000001,1.33711357239601
3.70000000000001,1.33433699690891
3.72000000000001,1.33140955431153
3.74000000000001,1.32827738325852
3.76000000000001,1.32491804746269
3.78000000000001,1.32135877149903
3.80000000000001,1.31757439306971
3.82000000000001,1.31354733200576
3.84000000000001,1.30929632386286
3.86000000000001,1.30482907611546
3.88000000000001,1.30016518547477
3.90000000000001,1.2948806655727
3.92000000000001,1.28928275512624
3.94000000000001,1.28368694953549
3.96000000000001,1.27817891227539
3.98000000000001,1.27264263034585
4.00000000000001,1.26687125740284
4.02000000000001,1.26086164574002
4.04000000000001,1.25480941515846
4.06000000000001,1.24846791510692
4.08000000000001,1.24175916236966
4.10000000000001,1.23490090560379
4.12000000000001,1.22772390761302
4.14000000000001,1.2202047240892
4.16000000000001,1.21242509182005
4.18000000000001,1.20425296742589
4.20000000000001,1.19581879950818
4.22000000000001,1.18724724944652
4.24000000000001,1.17855975849081
4.26000000000001,1.16976845133047
4.28000000000001,1.16069584143365
4.30000000000001,1.15140829675309
4.32000000000001,1.14198317120332
4.34000000000001,1.13242148560888
4.36000000000001,1.12266593670068
4.38000000000001,1.11268314057884
4.40000000000001,1.1025101312054
4.42000000000001,1.09214448279686
4.44000000000001,1.08165579281443
4.46000000000001,1.07074146776969
4.48000000000001,1.05962995301802
4.50000000000001,1.04836142810172
4.52000000000001,1.03696770883607
4.54000000000001,1.02557319174367
4.56000000000001,1.01407009799802
4.58000000000001,1.00252717349893
4.60000000000001,0.991098719399309
4.62000000000001,0.979671823866144
4.64000000000001,0.96808090196219
4.66000000000001,0.956206127789976
4.68000000000001,0.944042012269641
4.70000000000001,0.931744319438436
4.72000000000001,0.919568023399957
4.74000000000001,0.906659978489481
4.76000000000001,0.893923907144366
4.78000000000001,0.881829553459613
4.80000000000001,0.870349123848609
4.82000000000001,0.859003455709813
4.84000000000001,0.847562897212518
4.86000000000001,0.836090362181859
4.88000000000001,0.824495735299304
4.90000000000001,0.812983919330277
4.92000000000001,0.801509172834529
4.94000000000001,0.790064087741056
4.96000000000001,0.778731281162383
4.98000000000001,0.76758232118831
5.00000000000001,0.756692955128044
5.02000000000001,0.745751765508254
5.04000000000001,0.735368323276583
5.06000000000001,0.725233548620871
5.08000000000001,0.715252477968275
5.10000000000001,0.705337230763694
5.12000000000001,0.695202723449273
5.14000000000001,0.684703195040687
5.16000000000001,0.674061292566895
5.18000000000001,0.662968793392259
5.20000000000001,0.651119028550066
5.22000000000001,0.638606810581697
5.24000000000001,0.625473406109049
5.26000000000001,0.61128855214056
5.28000000000001,0.595744478923286
5.30000000000001,0.579821376319084
5.32000000000001,0.56467573928392
5.34000000000001,0.550437179147832
5.36000000000001,0.537151666678092
5.38000000000001,0.524603036297054
5.40000000000001,0.51266895227769
5.42000000000001,0.501549873605611
5.44000000000001,0.491321326629712
5.46000000000001,0.481823368920444
5.48000000000001,0.472812166821904
5.50000000000001,0.464405877691487
5.52000000000001,0.456627674290875
5.54000000000001,0.449490748922495
5.56000000000001,0.442779624014186
5.58000000000001,0.435946987850099
5.60000000000001,0.429781665603862
5.62000000000001,0.424139031750521
5.64000000000001,0.418937610718167
5.66000000000001,0.414017096430298
5.68000000000001,0.409305106296563
5.70000000000001,0.404930502871369
5.72000000000001,0.400964565882727
5.74000000000001,0.397236077125699
5.76000000000001,0.393660567241215
5.78000000000001,0.390285223674127
5.80000000000001,0.387160186374035
5.82000000000001,0.384392589680161
5.84000000000001,0.381723675303136
5.86000000000001,0.378870305899778
5.88000000000001,0.376416720647445
5.90000000000001,0.374254347331326
5.92000000000001,0.372302180914196
5.94000000000001,0.37043871160349
5.96000000000001,0.3686754337381
5.98000000000001,0.367086809472425
6.00000000000001,0.365687775088359
6.02000000000001,0.364403175416785
6.04000000000001,0.36316793160666
6.06000000000001,0.362087282839775
6.08000000000001,0.361182753557762
6.10000000000001,0.360552042161832
6.12000000000001,0.359839629215526
6.14000000000001,0.358943786215157
6.16000000000001,0.358324644352097
6.18000000000001,0.357886386836817
6.20000000000001,0.357623077509983
6.22000000000001,0.357415342545671
6.24000000000001,0.357256399728581
6.26000000000001,0.357266810756793
6.28000000000001,0.357465826355227
6.30000000000001,0.357729057034446
6.32000000000001,0.358018562024538
6.34000000000001,0.358452358124815
6.36000000000001,0.359113950285743
6.38000000000002,0.360097751470631
6.40000000000002,0.360814024232838
6.42000000000002,0.361416951645117
6.44000000000002,0.362370090267721
6.46000000000002,0.363551256773214
6.48000000000002,0.364857581912985
6.50000000000002,0.366197351234022
6.52000000000002,0.367661440424417
6.54000000000002,0.369320339165861
6.56000000000002,0.371161110926803
6.58000000000002,0.373098177826205
6.60000000000002,0.375120215039183
6.62000000000002,0.377370334268849
6.64000000000002,0.379943200427542
6.66000000000002,0.382949375647757
6.68000000000002,0.38560869728045
6.70000000000002,0.388337319522418
6.72000000000002,0.391468460291433
6.74000000000002,0.394862404172692
6.76000000000002,0.398475673055255
6.78000000000002,0.40226040128546
6.80000000000002,0.406289045092995
6.82000000000002,0.410718976765651
6.84000000000002,0.415509393864306
6.86000000000002,0.420518388165914
6.88000000000002,0.425798951928009
6.90000000000002,0.431533781259326
6.92000000000002,0.437888732796171
6.94000000000002,0.445036237995059
6.96000000000002,0.451748149178731
6.98000000000002,0.458889509208074
7.00000000000002,0.466807879259096
7.02000000000002,0.475413045530453
7.04000000000002,0.484613549157325
7.06000000000002,0.49430649408328
7.08000000000002,0.504712798422909
7.10000000000002,0.515846118062951
7.12000000000002,0.527626355476857
7.14000000000002,0.539769858645
7.16000000000002,0.552421014474181
7.18000000000002,0.565715951243244
7.20000000000002,0.579256477829364
7.22000000000002,0.592824113582575
7.24000000000002,0.605466365192657
7.26000000000002,0.617965778351251
7.28000000000002,0.630112610860143
7.30000000000002,0.641837816870852
7.32000000000002,0.653203666364484
7.34000000000002,0.664286705414155
7.36000000000002,0.675108743909007
7.38000000000002,0.686059595401288
7.40000000000002,0.697031902617575
7.42000000000002,0.707860460619487
7.44000000000002,0.718582337368835
7.46000000000002,0.729606568068394
7.48000000000002,0.741012340213975
7.50000000000002,0.752685465131244
7.52000000000002,0.764088737071536
7.54000000000002,0.775789759546252
7.56000000000002,0.787725146803386
7.58000000000002,0.799691267488123
7.60000000000002,0.811547288735863
7.62000000000002,0.823431958690184
7.64000000000002,0.835436731898196
7.66000000000002,0.847358664982777
7.68000000000002,0.859276350587906
7.70000000000002,0.871110060771462
7.72000000000002,0.883002659118851
7.74000000000002,0.895285150433186
7.76000000000002,0.908022516202427
7.78000000000002,0.920905077394423
7.80000000000002,0.933124450794765
7.82000000000002,0.945440633997239
7.84000000000002,0.957647064276697
7.86000000000002,0.96956088285808
7.88000000000002,0.9811556966361
7.90000000000001,0.992537880293859
7.92000000000001,1.00386826976899
7.94000000000001,1.01528159231425
7.96000000000001,1.02664576611475
7.98000000000001,1.03788981531989
8.00000000000001,1.04914834380035
8.02000000000001,1.0603242743958
8.04000000000001,1.07135432576515
8.06000000000001,1.08216797407768
8.08000000000001,1.09263063747413
8.10000000000001,1.10294246530107
8.12000000000001,1.11303816228394
8.14,1.12293484821414
8.16,1.13261808968336
8.18,1.14213131524906
8.2,1.15150415464541
8.22,1.16072193883059
8.24,1.16975899078012
8.26,1.17856468973029
8.28,1.18729670175403
8.3,1.19592682520372
8.32,1.20442675493482
8.34,1.21265511240077
8.36,1.22049845078865
8.38,1.22810820335463
8.39999999999999,1.23539506759685
8.41999999999999,1.24235697882134
8.43999999999999,1.24918063340192
8.45999999999999,1.2555832959038
8.47999999999999,1.261653979473
8.49999999999999,1.26765415173642
8.51999999999999,1.27340769208872
8.53999999999999,1.27891839154466
8.55999999999999,1.28436042580062
8.57999999999999,1.28985424193995
8.59999999999999,1.29531590210312
8.61999999999999,1.30050214704751
8.63999999999998,1.30509323403454
8.65999999999998,1.30951555747971
8.67999999999998,1.31373039455785
8.69999999999998,1.31772497427446
8.71999999999998,1.32148512823972
8.73999999999998,1.32504060224127
8.75999999999998,1.32841728824585
8.77999999999998,1.33158777181528
8.79999999999998,1.33455801977789
8.81999999999998,1.3373597164188
8.83999999999998,1.34004859202414
8.85999999999998,1.34268337275369
8.87999999999997,1.34527238765444
8.89999999999997,1.34775888193008
8.91999999999997,1.35012626547099
8.93999999999997,1.35240047652993
8.95999999999997,1.35457718059643
8.97999999999997,1.35669361486432
8.99999999999997,1.35872920167788
9.01999999999997,1.36065238560593
9.03999999999997,1.36244672170347
9.05999999999997,1.36410155720079
9.07999999999997,1.36559561592069
9.09999999999997,1.36693454207476
9.11999999999996,1.36810780434987
9.13999999999996,1.36912885638853
9.15999999999996,1.36995151146627
9.17999999999996,1.37055620406274
9.19999999999996,1.37099340903021
9.21999999999996,1.37127722398643
9.23999999999996,1.37141507162276
9.25999999999996,1.37142533957358
9.27999999999996,1.37136014820019
9.29999999999996,1.37127725186576
9.31999999999996,1.37113367065325
9.33999999999996,1.37099464018484
9.35999999999996,1.37091120970664
9.37999999999995,1.37087801774676
9.39999999999995,1.37091010477858
9.41999999999995,1.37103411086103
9.43999999999995,1.3712093995288
9.45999999999995,1.37125986972011
9.47999999999995,1.3712606113016
9.49999999999995,1.37120442481562
9.51999999999995,1.37105065522457
9.53999999999995,1.37079905785347
9.55999999999995,1.37039280815948
9.57999999999995,1.36981124022989
9.59999999999995,1.36902985077252
9.61999999999994,1.36800123429168
9.63999999999994,1.36678774786474
9.65999999999994,1.36542771790545
9.67999999999994,1.36391870365773
9.69999999999994,1.36224848496916
9.71999999999994,1.36043476697957
9.73999999999994,1.35848302674656
9.75999999999994,1.35638870865003
9.77999999999994,1.35421217482052
9.79999999999994,1.35199878697124
9.81999999999994,1.34974930064382
9.83999999999994,1.34742659786372
9.85999999999993,1.34500861855604
9.87999999999993,1.34255191852067
9.89999999999993,1.34002548150033
9.91999999999993,1.33740786695455
9.93999999999993,1.33470427211468
9.95999999999993,1.33189508971289
9.97999999999993,1.3289138753481
9.99999999999993,1.32572064013546
10.0199999999999,1.32212250790229
10.0399999999999,1.31835471979743
10.0599999999999,1.31439669440611
10.0799999999999,1.31023194046504
10.0999999999999,1.30584180872837
10.1199999999999,1.30121119029949
10.1399999999999,1.29636456301046
10.1599999999999,1.29101706030778
10.1799999999999,1.28569664623431
10.1999999999999,1.28029376392534
10.2199999999999,1.27470241519563
10.2399999999999,1.26899329099235
10.2599999999999,1.26314567657837
10.2799999999999,1.25710300894624
10.2999999999999,1.25075337509575
10.3199999999999,1.24426712078337
10.3399999999999,1.23756059748898
10.3599999999999,1.23058664723017
10.3799999999999,1.22323611638832
10.3999999999999,1.21549146001949
10.4199999999999,1.20746170775172
10.4399999999999,1.19921926947613
10.4599999999999,1.19081081651846
10.4799999999999,1.18225519712384
10.4999999999999,1.17344739426455
10.5199999999999,1.16434882166242
10.5399999999999,1.15508217977121
10.5599999999999,1.14565880499421
10.5799999999999,1.1359569396994
10.5999999999999,1.12614475128163
10.6199999999999,1.11621623786401
10.6399999999999,1.10610521550839
10.6599999999999,1.09568660103433
10.6799999999999,1.08499180160197
10.6999999999999,1.0741501834203
10.7199999999999,1.0632025753636
10.7399999999999,1.05207366523634
10.7599999999999,1.04070179645125
10.7799999999999,1.02939866947798
10.7999999999999,1.0181028870877
10.8199999999999,1.00680114244752
10.8399999999999,0.995393024428041
10.8599999999999,0.983689755051063
10.8799999999999,0.971976509476275
10.8999999999999,0.960175912588759
10.9199999999999,0.948266558948633
10.9399999999999,0.936071214747981
10.9599999999999,0.923718437963911
10.9799999999999,0.911439541643875
10.9999999999999,0.899318405754154
11.0199999999999,0.887476958276498
11.0399999999999,0.875923655769663
11.0599999999999,0.864636496741217
11.0799999999999,0.853623240879307
11.0999999999999,0.842726395113578
11.1199999999999,0.831436022434324
11.1399999999999,0.819713057946407
11.1599999999999,0.808155120444902
11.1799999999999,0.79678776339727
11.1999999999999,0.785446328393997
11.2199999999999,0.774075415457825
11.2399999999999,0.762817594272696
11.2599999999999,0.752006580279413
11.2799999999999,0.741405425671511
11.2999999999999,0.73128388038409
11.3199999999999,0.720944187854046
11.3399999999999,0.710589236124609
11.3599999999999,0.700120296864333
11.3799999999999,0.689402032566034
11.3999999999999,0.678069385125184
11.4199999999999,0.666143096943326
11.4399999999999,0.653391276271567
11.4599999999999,0.639448035908045
11.4799999999999,0.624411967324317
11.4999999999999,0.608225978861233
11.5199999999999,0.591886782828885
11.5399999999999,0.575962987941592
11.5599999999999,0.560806112927008
11.5799999999999,0.546599802091856
11.5999999999999,0.533350968811548
11.6199999999999,0.520997013121798
11.6399999999999,0.509717704420173
11.6599999999999,0.4995978083554
11.6799999999999,0.489189221339453
11.6999999999999,0.479269299159489
11.7199999999999,0.470503692750911
11.7399999999999,0.462581580280195
11.7599999999999,0.455177681542484
11.7799999999999,0.448060523571534
11.7999999999999,0.441343261017304
11.8199999999999,0.435158928718021
11.8399999999999,0.429470748631145
11.8599999999999,0.42408177413413
11.8799999999999,0.418857449490419
11.8999999999999,0.413976858241703
11.9199999999999,0.409614755141773
11.9399999999999,0.405782929139853
11.9599999999998,0.40148750534801
11.9799999999998,0.397400499970148
11.9999999999998,0.393813366393678
12.0199999999998,0.390620870047973
12.0399999999998,0.38757625795358
12.0599999999998,0.384596043353703
12.0799999999998,0.381790586840291
12.0999999999998,0.379287662119896
12.1199999999998,0.37699259640068
12.1399999999998,0.374771023503126
12.1599999999998,0.372613967734668
12.1799999999998,0.370695864694103
12.1999999999998,0.369061473116252
12.2199999999998,0.367703393712033
12.2399999999998,0.365893046361328
12.2599999999998,0.364287454996666
12.2799999999998,0.36296038864993
12.2999999999998,0.361831255864566
12.3199999999998,0.360785190380931
12.3399999999998,0.359764504692053
12.3599999999998,0.3588722790185
12.3799999999998,0.358176602459843
12.3999999999998,0.357614431222714
