"Time [ms]","FluxLinkage(PhaseA) [Wb]"
0,0.427952529156304
0.02,0.427726911845748
0.04,0.427805136640564
0.06,0.428158762468343
0.08,0.42869594890907
0.1,0.429306734373124
0.12,0.429980220706154
0.14,0.430820412617459
0.16,0.431868349529286
0.18,0.433067401595158
0.2,0.434301941267985
0.22,0.435612488284387
0.24,0.437138927976877
0.26,0.438989094915037
0.28,0.441088079334249
0.3,0.442723479951683
0.32,0.444675511521272
0.34,0.446988357772917
0.36,0.449610445054865
0.38,0.452299784368566
0.4,0.455081639940744
0.42,0.458126120096185
0.44,0.461547249901005
0.46,0.465188007346261
0.48,0.468914108051847
0.5,0.472852115183071
0.52,0.477273672061914
0.54,0.482246626236765
0.56,0.487457043723392
0.58,0.492284005840067
0.6,0.497717421985896
0.62,0.503751271534422
0.64,0.510207445936976
0.66,0.516878057551877
0.68,0.523916433789083
0.700000000000001,0.531532133503505
0.720000000000001,0.539772128053986
0.740000000000001,0.548482405066395
0.760000000000001,0.557544380595481
0.780000000000001,0.567271780500601
0.800000000000001,0.577966909830948
0.820000000000001,0.589726665382036
0.840000000000001,0.601723883655167
0.860000000000001,0.613286025068205
0.880000000000001,0.625683443266986
0.900000000000001,0.638428085324569
0.920000000000001,0.651279433911205
0.940000000000001,0.664039489902019
0.960000000000001,0.676854968567329
0.980000000000001,0.689724319612695
1,0.702170935155474
1.02,0.714017308789383
1.04,0.725576066888667
1.06,0.737120892225529
1.08,0.748775763378659
1.1,0.760196728516736
1.12,0.771314939105818
1.14,0.782208766332848
1.16,0.793258783393949
1.18,0.804388439025758
1.2,0.815686101142074
1.22,0.826868278824387
1.24,0.838041531134355
1.26,0.849440179727393
1.28,0.861100297046789
1.3,0.872819
1.32,0.884492888223532
1.34,0.896130482913475
1.36,0.907878134594352
1.38,0.91981977573917
1.4,0.931558107657275
1.42,0.943175160609768
1.44,0.954995989677831
1.46,0.966916646225035
1.48,0.978786137292049
1.5,0.990616689358589
1.52,1.00243252411664
1.54,1.01409468776507
1.56,1.02550887115762
1.58,1.03662273416453
1.6,1.04752234300503
1.62,1.05844964402545
1.64,1.06944549666593
1.66,1.08051014298309
1.68,1.0910982787101
1.7,1.10143848708604
1.72,1.11176116902249
1.74,1.12204366245741
1.76,1.13220271332083
1.78,1.14216292061371
1.8,1.1520518334424
1.82,1.16195755396931
1.84,1.17179963822982
1.86,1.18146737698923
1.88,1.19089656971638
1.9,1.20020044200215
1.92,1.20938635335549
1.94,1.21840532486379
1.96,1.22685165218809
1.98,1.23493805667275
2,1.24275143623026
2.02,1.25024336023333
2.04,1.25745235998985
2.06,1.26441497602983
2.08,1.27117469998849
2.1,1.27772152082103
2.12,1.28404877358056
2.14,1.29011368209416
2.16,1.29594546422287
2.18,1.3016215511482
2.2,1.307166995341
2.22,1.3126129061659
2.24,1.31779842113391
2.26,1.32283814068957
2.28,1.32775158841221
2.3,1.33257236218405
2.32,1.33726463892722
2.34,1.34184764562194
2.36,1.3463144288317
2.38,1.35053646047757
2.4,1.35460223689713
2.42,1.35850055926524
2.44,1.36225086349482
2.46,1.36587694279962
2.48,1.36945495370829
2.5,1.37283370899045
2.52,1.37590211821767
2.54,1.37883330576069
2.56,1.38163041045316
2.58,1.38431841998022
2.6,1.38691718441097
2.62,1.38942032197339
2.64,1.39184183196508
2.66,1.39421541177726
2.68,1.39648638280021
2.7,1.39865405104732
2.72,1.40072904624145
2.74,1.40271891978269
2.76,1.40460643702709
2.78,1.40635835700338
2.8,1.4079957990643
2.82,1.40951622329214
2.84,1.41090965082365
2.86,1.41217402463391
2.88,1.41331148552229
2.9,1.41423672799354
2.92,1.41495578749681
2.94,1.41551317977195
2.96,1.41588875404292
2.98,1.41612583114871
3,1.41624890136305
3.02,1.41628608846909
3.04,1.41626167008323
3.06,1.41617635270625
3.08,1.41599094543937
3.1,1.41587126407359
3.12,1.41582780415754
3.14,1.41582754154271
3.16,1.41588448063099
3.18,1.41599136354168
3.2,1.4160861398073
3.22000000000001,1.41612584699272
3.24000000000001,1.41616302871259
3.26000000000001,1.41614752499415
3.28000000000001,1.41601096051487
3.30000000000001,1.41573596982264
3.32000000000001,1.41532626171864
3.34000000000001,1.41477283071017
3.36000000000001,1.41403224635155
3.38000000000001,1.41305874811596
3.40000000000001,1.41197495334323
3.42000000000001,1.41076956548236
3.44000000000001,1.4093761692912
3.46000000000001,1.40782713748323
3.48000000000001,1.40614504522616
3.50000000000001,1.40435066600565
3.52000000000001,1.40244222964894
3.54000000000001,1.40043825994629
3.56000000000001,1.39839599571714
3.58000000000001,1.39626965911924
3.60000000000001,1.39405222101714
3.62000000000001,1.3917172323019
3.64000000000001,1.38927616939854
3.66000000000001,1.38677050117933
3.68000000000001,1.38418212191242
3.70000000000001,1.38152518025265
3.72000000000001,1.37870831361472
3.74000000000001,1.37569919866414
3.76000000000001,1.3724999850372
3.78000000000001,1.36912859525651
3.80000000000001,1.36554369697597
3.82000000000001,1.36162352347337
3.84000000000001,1.35767104074093
3.86000000000001,1.35343871176796
3.88000000000001,1.34895305304707
3.90000000000001,1.34414684607741
3.92000000000001,1.33896110196753
3.94000000000001,1.33376521143925
3.96000000000001,1.32864591363147
3.98000000000001,1.3235305358532
4.00000000000001,1.3182457319838
4.02000000000001,1.31280866632377
4.04000000000001,1.3073228210578
4.06000000000001,1.30181478774448
4.08000000000001,1.29622468573737
4.10000000000001,1.29047805007541
4.12000000000001,1.28458216464215
4.14000000000001,1.27849557937668
4.16000000000001,1.27224496135944
4.18000000000001,1.26564154955754
4.20000000000001,1.25875543760064
4.22000000000001,1.25168002328164
4.24000000000001,1.24441006831145
4.26000000000001,1.23692535864169
4.28000000000001,1.2290588432747
4.30000000000001,1.2208456829043
4.32000000000001,1.21233467543605
4.34000000000001,1.20355560673364
4.36000000000001,1.19451662232526
4.38000000000001,1.18526991978746
4.40000000000001,1.17590562191331
4.42000000000001,1.16643568987217
4.44000000000001,1.15693352900115
4.46000000000001,1.14713935219063
4.48000000000001,1.13724801122418
4.50000000000001,1.12733362993897
4.52000000000001,1.11732776394956
4.54000000000001,1.10724678704864
4.56000000000001,1.09694511574018
4.58000000000001,1.08648825027114
4.60000000000001,1.07590851153078
4.62000000000001,1.06520030234005
4.64000000000001,1.05430840744224
4.66000000000001,1.04315399089188
4.68000000000001,1.03178377228188
4.70000000000001,1.02034870608768
4.72000000000001,1.00891783622547
4.74000000000001,0.996419151025105
4.76000000000001,0.983729776734259
4.78000000000001,0.971371523598735
4.80000000000001,0.959335704221419
4.82000000000001,0.947297590545545
4.84000000000001,0.935250637062329
4.86000000000001,0.923479299889844
4.88000000000001,0.91190278670443
4.90000000000001,0.900454400628142
4.92000000000001,0.888874507191492
4.94000000000001,0.877047850993659
4.96000000000001,0.865239395835344
4.98000000000001,0.853681929872559
5.00000000000001,0.84246056776423
5.02000000000001,0.830982693642736
5.04000000000001,0.819886903492763
5.06000000000001,0.809213053854139
5.08000000000001,0.799111027157861
5.10000000000001,0.789191742153909
5.12000000000001,0.779279146581525
5.14000000000001,0.769704727635038
5.16000000000001,0.760550231074815
5.18000000000001,0.751314087844415
5.20000000000001,0.741635682423194
5.22000000000001,0.731373034442591
5.24000000000001,0.720517357088951
5.26000000000001,0.709024343904126
5.28000000000001,0.696706160719709
5.30000000000001,0.683328612269262
5.32000000000001,0.669780742152503
5.34000000000001,0.655698810241841
5.36000000000001,0.641470718769081
5.38000000000001,0.627676291515461
5.40000000000001,0.614231711437356
5.42000000000001,0.601369868538448
5.44000000000001,0.589348520397565
5.46000000000001,0.578109889202266
5.48000000000001,0.567367848996158
5.50000000000001,0.557316647823458
5.52000000000001,0.547994852600264
5.54000000000001,0.539442171395581
5.56000000000001,0.531398373484492
5.58000000000001,0.523204382799897
5.60000000000001,0.51580852891526
5.62000000000001,0.509039717314939
5.64000000000001,0.502798284652471
5.66000000000001,0.49689416502474
5.68000000000001,0.491240016054235
5.70000000000001,0.48599077434059
5.72000000000001,0.481232062604805
5.74000000000001,0.476757976481996
5.76000000000001,0.472466996989858
5.78000000000001,0.468416199091044
5.80000000000001,0.464665918047303
5.82000000000001,0.461344567052723
5.84000000000001,0.458141555736159
5.86000000000001,0.454717032846782
5.88000000000001,0.451772296268906
5.90000000000001,0.449177137221501
5.92000000000001,0.44683426631723
5.94000000000001,0.444597839346993
5.96000000000001,0.442481677752686
5.98000000000001,0.440575176225779
6.00000000000001,0.438896259117832
6.02000000000001,0.437354719649033
6.04000000000001,0.435872413586353
6.06000000000001,0.434575627582722
6.08000000000001,0.433490187652737
6.10000000000001,0.432733336662871
6.12000000000001,0.431878391643756
6.14000000000001,0.430803283406729
6.16000000000001,0.430060244747812
6.18000000000001,0.429534274576896
6.20000000000001,0.4292182659635
6.22000000000001,0.428968949488132
6.24000000000001,0.428778183722358
6.26000000000001,0.428790682077796
6.28000000000001,0.429029573866378
6.30000000000001,0.42934554464009
6.32000000000001,0.429693046572978
6.34000000000001,0.430213720581949
6.36000000000001,0.431007770359455
6.38000000000001,0.432188477849095
6.40000000000001,0.433048047040881
6.42000000000001,0.433771540661438
6.44000000000001,0.434915276433169
6.46000000000001,0.436332638176688
6.48000000000001,0.437900198614092
6.50000000000001,0.439507901089105
6.52000000000001,0.441264805216837
6.54000000000001,0.443255502997849
6.56000000000001,0.445464456409291
6.58000000000001,0.447788970601068
6.60000000000001,0.450215499708192
6.62000000000001,0.452915819778795
6.64000000000001,0.45600359425132
6.66000000000001,0.459611533299594
6.68000000000001,0.46280318485787
6.70000000000001,0.466078010935781
6.72000000000001,0.469835875515227
6.74000000000001,0.473909035101781
6.76000000000001,0.478245285816212
6.78000000000001,0.482787047451381
6.80000000000001,0.487621017738118
6.82000000000001,0.492936166719644
6.84000000000001,0.498683631212171
6.86000000000001,0.504691710351363
6.88000000000001,0.511023788314623
6.90000000000001,0.517896874824456
6.92000000000001,0.525507134742026
6.94000000000001,0.534059300539478
6.96000000000001,0.542073985137469
6.98000000000001,0.550546345860791
7.00000000000001,0.559904720473914
7.02000000000001,0.57001354161372
7.04000000000002,0.580650507838496
7.06000000000002,0.591629021483952
7.08000000000002,0.603206767331747
7.10000000000002,0.615330790083314
7.12000000000002,0.62756627669695
7.14000000000002,0.639628477396931
7.16000000000002,0.651641508556744
7.18000000000002,0.66387256558143
7.20000000000002,0.676179815435081
7.22000000000002,0.688477102075527
7.24000000000002,0.699753079616556
7.26000000000002,0.710992072133348
7.28000000000002,0.722099685538007
7.30000000000002,0.733079905737993
7.32000000000002,0.743949141898576
7.34000000000002,0.754426376120491
7.36000000000002,0.764663730347474
7.38000000000002,0.775225089461824
7.40000000000002,0.786010927862328
7.42000000000002,0.796863351369184
7.44000000000002,0.807745938019641
7.46000000000002,0.818929691627392
7.48000000000002,0.830495775894669
7.50000000000002,0.842410676486971
7.52000000000002,0.854004215040013
7.54000000000002,0.865924262272357
7.56000000000002,0.878081865574687
7.58000000000002,0.890231775334227
7.60000000000002,0.902149633799812
7.62000000000002,0.914023565134581
7.64000000000002,0.92607300174681
7.66000000000002,0.938164694080408
7.68000000000002,0.950310090880361
7.70000000000002,0.962340606931725
7.72000000000002,0.974346978738133
7.74000000000002,0.986561814645643
7.76000000000002,0.998970916429887
7.78000000000002,1.01119751732962
7.80000000000002,1.02251864478149
7.82000000000002,1.03377362632322
7.84000000000002,1.0449296819561
7.86000000000001,1.05590613701452
7.88000000000001,1.06666472562618
7.90000000000001,1.07724078190503
7.92000000000001,1.08770511711826
7.94000000000001,1.09811862738793
7.96000000000001,1.10838736741625
7.98000000000001,1.11845797630573
8.00000000000001,1.12845254103611
8.02000000000001,1.13833131179776
8.04000000000001,1.14812199400255
8.06000000000001,1.15779310607914
8.08000000000001,1.16722748192435
8.1,1.17666447663926
8.12,1.18600074048592
8.14,1.19519455558514
8.16,1.20415855993198
8.18,1.21287994528468
8.2,1.22132274740757
8.22,1.22944115734882
8.24,1.2372154404559
8.26,1.24463255048232
8.28,1.25185495790606
8.3,1.2588881689476
8.32,1.26574390761997
8.34,1.27233088125348
8.35999999999999,1.27859817556279
8.37999999999999,1.28474068593596
8.39999999999999,1.29072633360758
8.41999999999999,1.29656157898136
8.43999999999999,1.3022343457074
8.45999999999999,1.30788917918782
8.47999999999999,1.31329897046286
8.49999999999999,1.31871777533
8.51999999999999,1.32397130976796
8.53999999999999,1.32904042324067
8.55999999999999,1.33407766664794
8.57999999999999,1.3391554707163
8.59999999999998,1.34418967166759
8.61999999999998,1.34887568040358
8.63999999999998,1.35318664556886
8.65999999999998,1.35735592733227
8.67999999999998,1.36136843948215
8.69999999999998,1.36528818513328
8.71999999999998,1.36891817857165
8.73999999999998,1.37235551580129
8.75999999999998,1.37562883571644
8.77999999999998,1.37871933792237
8.79999999999998,1.3816148217117
8.81999999999998,1.38433908711021
8.83999999999997,1.38694011802051
8.85999999999997,1.38947200866259
8.87999999999997,1.39194754886869
8.89999999999997,1.3943065204873
8.91999999999997,1.39653990875087
8.93999999999997,1.39866633049254
8.95999999999997,1.40067761307001
8.97999999999997,1.40261367963589
8.99999999999997,1.40446040271528
9.01999999999997,1.40620261143259
9.03999999999997,1.40783975286506
9.05999999999997,1.40936073471155
9.07999999999996,1.41074778800179
9.09999999999996,1.41201136920566
9.11999999999996,1.41313491985693
9.13999999999996,1.41407490168863
9.15999999999996,1.41487394470582
9.17999999999996,1.41542166695538
9.19999999999996,1.41582445739337
9.21999999999996,1.41609727209498
9.23999999999996,1.41624790848101
9.25999999999996,1.41628892285737
9.27999999999996,1.41624811524165
9.29999999999996,1.41617245816188
9.31999999999996,1.41603716545923
9.33999999999995,1.41589559240281
9.35999999999995,1.41581100168788
9.37999999999995,1.41578076867619
9.39999999999995,1.41580672462582
9.41999999999995,1.41591373731415
9.43999999999995,1.41606344600456
9.45999999999995,1.41609543548043
9.47999999999995,1.41608923621252
9.49999999999995,1.41603129345008
9.51999999999995,1.4158896707484
9.53999999999995,1.41567165188253
9.55999999999995,1.4153130860842
9.57999999999994,1.41479189555656
9.59999999999994,1.41409622829699
9.61999999999994,1.4131263689872
9.63999999999994,1.41204105658909
9.65999999999994,1.41077295693287
9.67999999999994,1.40938506206387
9.69999999999994,1.40786071790324
9.71999999999994,1.40620827982335
9.73999999999994,1.40443266805616
9.75999999999994,1.40253547876682
9.77999999999994,1.40055629420198
9.79999999999994,1.39851026422663
9.81999999999993,1.3963917092531
9.83999999999993,1.39417812699298
9.85999999999993,1.39186522278435
9.87999999999993,1.38951487631846
9.89999999999993,1.38708905895943
9.91999999999993,1.38456482919709
9.93999999999993,1.38194448058947
9.95999999999993,1.37921289317805
9.97999999999993,1.37632973139218
9.99999999999993,1.37328057598615
10.0199999999999,1.3698856007683
10.0399999999999,1.36624972488849
10.0599999999999,1.36251071305675
10.0799999999999,1.3585778329673
10.0999999999999,1.35444995896765
10.1199999999999,1.3501169221928
10.1399999999999,1.34559622223927
10.1599999999999,1.34076441119669
10.1799999999999,1.33581426652049
10.1999999999999,1.33077236653412
10.2199999999999,1.32560048303089
10.2399999999999,1.32036066580095
10.2599999999999,1.31502902948867
10.2799999999999,1.30959744590185
10.2999999999999,1.30401701754822
10.3199999999999,1.29840362076357
10.3399999999999,1.29271860147771
10.3599999999999,1.28693061965054
10.3799999999999,1.28092312072616
10.3999999999999,1.27463705688602
10.4199999999999,1.26812030576734
10.4399999999999,1.26137792573318
10.4599999999999,1.25440241954762
10.4799999999999,1.24717721869467
10.4999999999999,1.23963006087612
10.5199999999999,1.23172387142642
10.5399999999999,1.22351633275058
10.5599999999999,1.21497180154447
10.5799999999999,1.20595480307097
10.5999999999999,1.19674670803315
10.6199999999999,1.18746828033654
10.6399999999999,1.17808774949921
10.6599999999999,1.16847321038913
10.6799999999999,1.15861880495794
10.6999999999999,1.14875834621438
10.7199999999999,1.13888842290312
10.7399999999999,1.12894329172554
10.7599999999999,1.11875161031493
10.7799999999999,1.10856437735458
10.7999999999999,1.09833862506389
10.8199999999999,1.08806524349724
10.8399999999999,1.07751253508906
10.8599999999999,1.06652395468419
10.8799999999999,1.05557496633103
10.8999999999999,1.04462587257541
10.9199999999999,1.03363661648306
10.9399999999999,1.02237376502514
10.9599999999999,1.01076155623249
10.9799999999999,0.998885115367784
10.9999999999999,0.98686129367841
11.0199999999999,0.974844703267154
11.0399999999999,0.962843548253757
11.0599999999999,0.950918494277937
11.0799999999999,0.939206881321125
11.0999999999999,0.927867388749081
11.1199999999999,0.916513564171929
11.1399999999999,0.904947794078425
11.1599999999999,0.893639241714501
11.1799999999999,0.882324768866318
11.1999999999999,0.870903828992522
11.2199999999999,0.859480555129307
11.2399999999999,0.84816612044551
11.2599999999999,0.837139112811085
11.2799999999999,0.826664884937657
11.2999999999999,0.816208883382506
11.3199999999999,0.80583732832485
11.3399999999999,0.795612571873277
11.3599999999999,0.785658003399247
11.3799999999999,0.776077891356264
11.3999999999999,0.766486217226424
11.4199999999999,0.756624011045853
11.4399999999999,0.74636545539109
11.4599999999999,0.735352990089079
11.4799999999999,0.723535487462604
11.4999999999999,0.710899189950274
11.5199999999999,0.697261888152124
11.5399999999999,0.682808453801485
11.5599999999999,0.667958017970032
11.5799999999999,0.652905625310382
11.5999999999999,0.638230803150704
11.6199999999999,0.624240369120871
11.6399999999999,0.611173367337147
11.6599999999999,0.599265029978889
11.6799999999999,0.586951585838561
11.6999999999999,0.575120676388494
11.7199999999999,0.564633761817583
11.7399999999999,0.5551414115658
11.7599999999999,0.546267784797798
11.7799999999999,0.537736064404828
11.7999999999999,0.529680187843858
11.8199999999999,0.52226243853875
11.8399999999999,0.515438765278304
11.8599999999999,0.508972282281759
11.8799999999999,0.502703907661075
11.8999999999999,0.49684778468567
11.9199999999998,0.491613836622597
11.9399999999998,0.487015880328296
11.9599999999998,0.481861469760019
11.9799999999998,0.476956979353536
11.9999999999998,0.47265199734246
12.0199999999998,0.468820301260909
12.0399999999998,0.465166034982074
12.0599999999998,0.46158907244345
12.0799999999998,0.458221943430266
12.0999999999998,0.455217965974954
12.1199999999998,0.452463477391696
12.1399999999998,0.449797196294152
12.1599999999998,0.447208390773482
12.1799999999998,0.4449064175621
12.1999999999998,0.442944989081677
12.2199999999998,0.441315227448939
12.2399999999998,0.439142717040842
12.2599999999998,0.437215952891573
12.2799999999998,0.435623428412731
12.2999999999998,0.434268412867662
12.3199999999998,0.43301303301608
12.3399999999998,0.4317880852564
12.3599999999998,0.43071731079579
12.3799999999998,0.429882412052331
12.3999999999998,0.429207719228554
12.4199999999998,0.428589107857773
12.4399999999998,0.428040309548763
12.4599999999998,0.42769934542193
12.4799999999998,0.427663896301522
12.4999999999998,0.427927083921748
12.5199999999998,0.427713762441215
12.5399999999998,0.427800907185639
12.5599999999998,0.428157079605966
12.5799999999998,0.428691853260281
12.5999999999998,0.429304850068143
12.6199999999998,0.429980799048771
12.6399999999998,0.43082042995413
12.6599999999998,0.431868223142864
12.6799999999998,0.43306692182099
12.6999999999998,0.434300654340256
12.7199999999998,0.435609627309844
