"Time [ms]","FluxLinkage(PhaseA) [Wb]"
0,0.890822137494252
0.02,0.89035758133843
0.04,0.89051053558142
0.06,0.891222025191819
0.08,0.892309266309883
0.1,0.893549565027377
0.12,0.894915027920687
0.14,0.896612428706954
0.16,0.898721678637574
0.18,0.901133117692726
0.2,0.903609618610388
0.22,0.906228834652122
0.24,0.909274109837365
0.26,0.912937820478617
0.28,0.917070309972327
0.3,0.920252473408191
0.32,0.924031549409348
0.34,0.92849178413746
0.36,0.933515545965804
0.38,0.93862787170687
0.4,0.943822103366893
0.42,0.9494262090475
0.44,0.955573230872786
0.46,0.961961285775474
0.48,0.968315465500168
0.5,0.974809384029532
0.52,0.981856949629571
0.54,0.98954829490274
0.56,0.997364887583679
0.58,1.00428112316048
0.6,1.01182897404964
0.62,1.0199403466481
0.64,1.02829839113833
0.66,1.03647288843356
0.68,1.04468277181167
0.700000000000001,1.0533519163272
0.720000000000001,1.06234781950753
0.740000000000001,1.07112473924256
0.760000000000001,1.07948250142037
0.780000000000001,1.0876901974891
0.800000000000001,1.09588317598858
0.820000000000001,1.1041571453638
0.840000000000001,1.11205631074076
0.860000000000001,1.11934700914576
0.880000000000001,1.12698925091745
0.900000000000001,1.13482139662733
0.920000000000001,1.14266843333049
0.940000000000001,1.15031447601599
0.960000000000001,1.1578360830471
0.980000000000001,1.16543258979797
1,1.17314082758634
1.02,1.18078753226811
1.04,1.18830990731275
1.06,1.19586178945844
1.08,1.20344067594121
1.1,1.21112536360755
1.12,1.21863083178217
1.14,1.22595915623319
1.16,1.23349649932639
1.18,1.24101196883177
1.2,1.24833716291042
1.22,1.2553127962873
1.24,1.2620881849892
1.26,1.26880183312922
1.28,1.27541796207205
1.3,1.28180634884791
1.32,1.28794065799936
1.34,1.29395029637281
1.36,1.29999833428831
1.38,1.30614054507985
1.4,1.31202653220166
1.42,1.31772644077692
1.44,1.32350878688028
1.46,1.32930993125602
1.48,1.33498427811237
1.5,1.34051258274651
1.52,1.34604441088601
1.54,1.3516281524681
1.56,1.35718130907649
1.58,1.36262149670594
1.6,1.36794002263666
1.62,1.3732471816096
1.64,1.37863606416984
1.66,1.38412732636382
1.68,1.38923330849998
1.7,1.39417216827862
1.72,1.39914908461566
1.74,1.40411115350344
1.76,1.40896938404105
1.78,1.41369067391158
1.8,1.41834452402014
1.82,1.42300332782745
1.84,1.42762438037384
1.86,1.4321380947315
1.88,1.43653803119501
1.9,1.44088344885613
1.92,1.44519760505937
1.94,1.44950835040641
1.96,1.45355197668665
1.98,1.45751183213035
2,1.46143141447102
2.02,1.46528131316504
2.04,1.46905238975283
2.06,1.47273263955312
2.08,1.4763607706534
2.1,1.47996734875543
2.12,1.48352186864124
2.14,1.48698557285309
2.16,1.49037799289581
2.18,1.49373777867036
2.2,1.49706064616116
2.22,1.50035890350653
2.24,1.5035049092374
2.26,1.50661951316425
2.28,1.50970102290871
2.3,1.51272436603391
2.32,1.51566457446773
2.34,1.51852076042357
2.36,1.52130205467883
2.38,1.52399752064172
2.40000000000001,1.52661185715514
2.42000000000001,1.52912832055342
2.44000000000001,1.53156251426364
2.46000000000001,1.53394754542211
2.48000000000001,1.53629930923396
2.50000000000001,1.53862226733735
2.52000000000001,1.54081271575153
2.54000000000001,1.54297810328777
2.56000000000001,1.54509530438087
2.58000000000001,1.54714168778881
2.60000000000001,1.54909725337911
2.62000000000001,1.55096514066704
2.64000000000001,1.55275751090523
2.66000000000001,1.55450602891578
2.68000000000001,1.55617742022225
2.70000000000001,1.5577633420881
2.72000000000001,1.55925629551013
2.74000000000001,1.56064914279733
2.76000000000001,1.56194386834857
2.78000000000001,1.56317104640824
2.80000000000001,1.56428025376351
2.82000000000001,1.56528092158557
2.84000000000001,1.56622154938749
2.86000000000001,1.5670603380636
2.88000000000001,1.56779853599648
2.90000000000001,1.5684305991725
2.92000000000001,1.56895130316393
2.94000000000001,1.56940729331147
2.96000000000001,1.56975652842691
2.98000000000001,1.57000046345677
3.00000000000001,1.5701831983653
3.02000000000001,1.57030071686846
3.04000000000001,1.57038525293241
3.06000000000001,1.57042654753255
3.08000000000001,1.57038277743791
3.10000000000001,1.57036947079747
3.12000000000001,1.57035536595905
3.14000000000001,1.57034832821749
3.16000000000001,1.57035378292041
3.18000000000001,1.57035964594438
3.20000000000001,1.57031449565078
3.22000000000001,1.57024888285373
3.24000000000001,1.57017036913428
3.26000000000001,1.57005296882631
3.28000000000001,1.56985147365863
3.30000000000001,1.56956543961576
3.32000000000001,1.5692307339732
3.34000000000001,1.568776313454
3.36000000000001,1.5682452981502
3.38000000000001,1.56762780897702
3.40000000000001,1.56693417124058
3.42000000000001,1.56614393587792
3.44000000000001,1.56524320831241
3.46000000000001,1.56422823185864
3.48000000000001,1.56311704200273
3.50000000000001,1.56191582498982
3.52000000000001,1.56061139585966
3.54000000000001,1.55920299677094
3.56000000000001,1.55771813317827
3.58000000000001,1.55613464557948
3.60000000000001,1.55446330559398
3.62000000000001,1.5526804281621
3.64000000000001,1.55077458410627
3.66000000000001,1.54878961976675
3.68000000000001,1.54671969828256
3.70000000000001,1.54459840196666
3.72000000000001,1.54238799111019
3.74000000000001,1.54010190334434
3.76000000000001,1.5377751205136
3.78000000000001,1.53540637175058
3.80000000000001,1.5329588183151
3.82000000000001,1.53042076370098
3.84000000000001,1.52781499938038
3.86000000000001,1.52515281325959
3.88000000000001,1.52244259654657
3.90000000000001,1.51953296005914
3.92000000000001,1.51644168366843
3.94000000000001,1.51333201506667
3.96000000000001,1.5102171181731
3.98000000000001,1.50705199215223
4.00000000000001,1.50378913887747
4.02000000000001,1.50046534672735
4.04000000000001,1.49712315174936
4.06000000000001,1.49375549029562
4.08000000000001,1.49032613569749
4.10000000000001,1.48681876309556
4.12000000000001,1.48327426396499
4.14000000000001,1.47971513301062
4.16000000000001,1.47617242061993
4.18000000000001,1.47247025386463
4.20000000000001,1.46869133072508
4.22000000000001,1.46491840816993
4.24000000000001,1.46113899387835
4.26000000000001,1.45733023204872
4.28000000000001,1.45340541569827
4.30000000000001,1.44941909598065
4.32000000000001,1.44542057928824
4.34000000000001,1.44139223037762
4.36000000000001,1.43728393776775
4.38000000000001,1.43307297561346
4.40000000000001,1.42880662703507
4.42000000000001,1.42449258371575
4.44000000000001,1.42015797573557
4.46000000000001,1.41551226243511
4.48000000000001,1.41075445789923
4.50000000000001,1.40595684845508
4.52000000000001,1.40110729713714
4.54000000000001,1.39619993601894
4.56000000000001,1.39116235100581
4.58000000000001,1.38606399433854
4.60000000000001,1.38097870207054
4.62000000000001,1.37587914818737
4.64000000000001,1.37069371222244
4.66000000000001,1.36542626103954
4.68000000000001,1.36013652989182
4.70000000000001,1.35491084364098
4.72000000000001,1.34981103184914
4.74000000000001,1.34405947672402
4.76000000000001,1.33833309520803
4.78000000000001,1.33270403112836
4.80000000000001,1.32708927643863
4.82000000000001,1.32134416133764
4.84000000000001,1.31538807355558
4.86000000000001,1.30934153403689
4.88000000000001,1.30326833934966
4.90000000000001,1.29713039536656
4.92000000000001,1.29086039465668
4.94000000000001,1.28449682060049
4.96000000000001,1.27811663737205
4.98000000000001,1.27175357700892
5.00000000000001,1.26544392046784
5.02000000000001,1.25852731927025
5.04000000000001,1.25166571944793
5.06000000000001,1.24479054952119
5.08000000000001,1.23783897860945
5.10000000000001,1.23067490892548
5.12000000000001,1.22323330771656
5.14000000000001,1.2156566522714
5.16000000000001,1.20808081634055
5.18000000000001,1.20031868606425
5.20000000000001,1.19237332435599
5.22000000000001,1.18255933203536
5.24000000000001,1.17451483393313
5.26000000000001,1.16630528294264
5.28000000000001,1.15820435993962
5.30000000000001,1.14939851668629
5.32000000000001,1.14098410114103
5.34000000000001,1.13291519183954
5.36000000000001,1.12518575563769
5.38000000000001,1.11747452509387
5.40000000000001,1.10975751020254
5.42000000000001,1.10223528588201
5.44000000000001,1.09499698578418
5.46000000000001,1.08788780167463
5.48000000000001,1.08079034432213
5.50000000000001,1.07374981502432
5.52000000000001,1.06672548687269
5.54000000000001,1.05987809816857
5.56000000000001,1.05301613364915
5.58000000000001,1.04530081149574
5.60000000000001,1.03762315056228
5.62000000000001,1.02995342286436
5.64000000000001,1.02232773706305
5.66000000000001,1.01455607935224
5.68000000000001,1.00654939813945
5.70000000000001,0.998628643071202
5.72000000000001,0.991135777243084
5.74000000000001,0.98385840259343
5.76000000000001,0.976629848344866
5.78000000000001,0.969582155358103
5.80000000000001,0.962839712854081
5.82000000000001,0.956687424504982
5.84000000000001,0.950627724531807
5.86000000000001,0.944091060336285
5.88000000000001,0.938399494144182
5.90000000000001,0.933349296235963
5.92000000000001,0.928763182789556
5.94000000000001,0.924354040518473
5.96000000000001,0.920152828939375
5.98000000000001,0.916347825957398
6.00000000000001,0.912982995233452
6.02000000000001,0.909880035599162
6.04000000000001,0.906889575461939
6.06000000000001,0.904267056414301
6.08000000000001,0.902071131909681
6.10000000000001,0.900540094956783
6.12000000000001,0.898803491086755
6.14000000000001,0.896613958041404
6.16000000000001,0.895100080403934
6.18000000000001,0.894029923643928
6.20000000000001,0.893385221612771
6.22000000000001,0.892878668136713
6.24000000000001,0.892494308557047
6.26000000000001,0.892521458956323
6.28000000000001,0.893007298686818
6.30000000000001,0.89365117498372
6.32000000000001,0.89435675642948
6.34000000000001,0.895402888294947
6.36000000000001,0.897001040186424
6.38000000000002,0.899380511787516
6.40000000000002,0.901098367508746
6.42000000000002,0.902534184736867
6.44000000000002,0.90481610986495
6.46000000000002,0.907640631141003
6.48000000000002,0.910735310853086
6.50000000000002,0.913884233249293
6.52000000000002,0.917292409175539
6.54000000000002,0.921132214012529
6.56000000000002,0.92538363579139
6.58000000000002,0.929808707038455
6.60000000000002,0.934363176603387
6.62000000000002,0.939368848952725
6.64000000000002,0.944971867645242
6.66000000000002,0.95140689766844
6.68000000000002,0.956933591392629
6.70000000000002,0.962471532253674
6.72000000000002,0.968703441806667
6.74000000000002,0.975251816427915
6.76000000000002,0.981961426358073
6.78000000000002,0.988733129631486
6.80000000000002,0.995755290315002
6.82000000000002,1.00322479741014
6.84000000000002,1.01093327975206
6.86000000000002,1.01853889766918
6.88000000000002,1.02614706553998
6.90000000000002,1.03415792811913
6.92000000000002,1.04281682531836
6.94000000000002,1.05214800235059
6.96000000000002,1.05987457193451
6.98000000000002,1.06742359770349
7.00000000000002,1.0751669156788
7.02000000000002,1.08283350971794
7.04000000000002,1.09049483080531
7.06000000000002,1.09820244788871
7.08000000000002,1.10608458191747
7.10000000000002,1.11422744367596
7.12000000000002,1.12244967070427
7.14000000000002,1.13054615281589
7.16000000000002,1.13857828034532
7.18000000000002,1.14671080634225
7.20000000000002,1.15504422052857
7.22000000000002,1.16367294755851
7.24000000000002,1.17140315251688
7.26000000000002,1.17908099314043
7.28000000000002,1.18666874388718
7.30000000000002,1.19409231517662
7.32000000000002,1.20136989611106
7.34000000000002,1.2084967692828
7.36000000000002,1.21558656098679
7.38000000000002,1.22284892998542
7.40000000000002,1.23008951970758
7.42000000000002,1.23712293723338
7.44000000000002,1.24392706640312
7.46000000000002,1.25071692571578
7.48000000000002,1.25758306902979
7.50000000000002,1.26451470347279
7.52000000000002,1.27076784730397
7.54000000000002,1.27706954708806
7.56000000000002,1.28338322430991
7.58000000000002,1.28961556515362
7.60000000000002,1.29568128432486
7.62000000000002,1.30164417028062
7.64000000000002,1.30758736355232
7.66000000000002,1.31353859421159
7.68000000000002,1.31941769647516
7.70000000000002,1.32510808276993
7.72000000000002,1.33069679974302
7.74000000000002,1.33631125783017
7.76000000000002,1.34199487778754
7.78000000000002,1.34766113535724
7.80000000000002,1.35284678943031
7.82000000000002,1.35809642277246
7.84000000000002,1.36338383701184
7.86000000000002,1.36866464398932
7.88000000000002,1.37388125603479
7.90000000000001,1.37903640842716
7.92000000000001,1.38417651042263
7.94000000000001,1.38932670474006
7.96000000000001,1.39440981900818
7.98000000000001,1.39936383280651
8.00000000000001,1.40426571376563
8.02000000000001,1.40913139621792
8.04000000000001,1.4139422260378
8.06000000000001,1.41863934579586
8.08000000000001,1.42311009911921
8.10000000000001,1.42756501407144
8.12000000000001,1.43196060157093
8.14,1.4362770898363
8.16,1.44049001894728
8.18,1.44463389202892
8.2,1.44874712365701
8.22,1.45283338813154
8.24,1.45682706908238
8.26,1.46069327879521
8.28,1.46453543620876
8.3,1.4683702512688
8.32,1.47220215328507
8.34,1.47594701388101
8.36,1.47953692082241
8.38,1.48313715470682
8.39999999999999,1.48671803190482
8.41999999999999,1.49030187077509
8.43999999999999,1.49370616808527
8.45999999999999,1.49708521733175
8.47999999999999,1.50042780817648
8.49999999999999,1.50374476880816
8.51999999999999,1.50699204232401
8.53999999999999,1.5101279855603
8.55999999999999,1.51320191980565
8.57999999999999,1.51628068618843
8.59999999999999,1.51934073230232
8.61999999999999,1.52222217782531
8.63999999999998,1.52490894693855
8.65999999999998,1.52754795885335
8.67999999999998,1.53013670180388
8.69999999999998,1.53266166040497
8.71999999999998,1.53513756462339
8.73999999999998,1.53750200883823
8.75999999999998,1.53982698555014
8.77999999999998,1.54211232442919
8.79999999999998,1.54429369350391
8.81999999999998,1.54641758032497
8.83999999999998,1.54846320315381
8.85999999999998,1.55043256830625
8.87999999999997,1.55233195806274
8.89999999999997,1.55411540043863
8.91999999999997,1.55579802108089
8.93999999999997,1.55740165422528
8.95999999999997,1.55890977696249
8.97999999999997,1.56033270694087
8.99999999999997,1.56165202226481
9.01999999999997,1.562868478078
9.03999999999997,1.56403348938999
9.05999999999997,1.56504306523484
9.07999999999997,1.5659829671006
9.09999999999997,1.56682634983123
9.11999999999996,1.56757505411684
9.13999999999996,1.56823399807878
9.15999999999996,1.56879562397285
9.17999999999996,1.56927393168385
9.19999999999996,1.56964740736509
9.21999999999996,1.56992676450747
9.23999999999996,1.57014737874365
9.25999999999996,1.57028755894701
9.27999999999996,1.57037394125392
9.29999999999996,1.57042692131518
9.31999999999996,1.57041917082458
9.33999999999996,1.57040226464751
9.35999999999996,1.57036540977864
9.37999999999995,1.57033555390532
9.39999999999995,1.57031678951119
9.41999999999995,1.57032680143367
9.43999999999995,1.5703166269793
9.45999999999995,1.57024890744742
9.47999999999995,1.57017185738418
9.49999999999995,1.57005521622817
9.51999999999995,1.56986332353265
9.53999999999995,1.56962780269756
9.55999999999995,1.56930754546476
9.57999999999995,1.56890274492072
9.59999999999995,1.56841540161821
9.61999999999994,1.56782500401626
9.63999999999994,1.56713441199159
9.65999999999994,1.56634520952123
9.67999999999994,1.56545061842791
9.69999999999994,1.5644550793114
9.71999999999994,1.56337454947366
9.73999999999994,1.56220075628217
9.75999999999994,1.56092306259154
9.77999999999994,1.55954975373532
9.79999999999994,1.55807824437692
9.81999999999994,1.55650710584968
9.83999999999994,1.55483896601835
9.85999999999993,1.55308238519621
9.87999999999993,1.55127516803527
9.89999999999993,1.54938250348622
9.91999999999993,1.54739370352285
9.93999999999993,1.54530858486724
9.95999999999993,1.54314338591342
9.97999999999993,1.54091765615276
9.99999999999993,1.5386513561768
10.0199999999999,1.53625590857104
10.0399999999999,1.53382294085351
10.0599999999999,1.53134726984909
10.0799999999999,1.52881466997639
10.0999999999999,1.52620038592731
10.1199999999999,1.52348491717586
10.1399999999999,1.52067866533826
10.1599999999999,1.51775205813582
10.1799999999999,1.51474305624934
10.1999999999999,1.51165426521096
10.2199999999999,1.50848117733453
10.2399999999999,1.5052544526043
10.2599999999999,1.50200935460112
10.2799999999999,1.49874800913337
10.2999999999999,1.49536517697949
10.3199999999999,1.49197067047522
10.3399999999999,1.48855103048082
10.3599999999999,1.48510012832098
10.3799999999999,1.48157487770742
10.3999999999999,1.47796739101718
10.4199999999999,1.47431779161008
10.4399999999999,1.47064897652641
10.4599999999999,1.46694095101529
10.4799999999999,1.46315814677105
10.4999999999999,1.45928724824491
10.5199999999999,1.4553633545422
10.5399999999999,1.45144207294749
10.5599999999999,1.44748594032747
10.5799999999999,1.44333758179176
10.5999999999999,1.43920441279082
10.6199999999999,1.43507273194928
10.6399999999999,1.43087854552299
10.6599999999999,1.42654468518583
10.6799999999999,1.42208509455231
10.6999999999999,1.41755975466998
10.7199999999999,1.4130168022666
10.7399999999999,1.4083901648073
10.7599999999999,1.40361182209887
10.7799999999999,1.39875427843619
10.7999999999999,1.39386066917554
10.8199999999999,1.38896904052451
10.8399999999999,1.3839204433213
10.8599999999999,1.37853184796978
10.8799999999999,1.37321529922908
10.8999999999999,1.36795501061488
10.9199999999999,1.36263964062014
10.9399999999999,1.35728082475096
10.9599999999999,1.35163163905762
10.9799999999999,1.34617475022935
10.9999999999999,1.34076485113973
11.0199999999999,1.3353221957158
11.0399999999999,1.32971166961953
11.0599999999999,1.32394410861631
11.0799999999999,1.31815723561419
11.0999999999999,1.31241433311042
11.1199999999999,1.30643698940727
11.1399999999999,1.30016613979402
11.1599999999999,1.29399142709297
11.1799999999999,1.28786838249543
11.1999999999999,1.28168127398253
11.2199999999999,1.2752750356244
11.2399999999999,1.26868941918346
11.2599999999999,1.26204145723421
11.2799999999999,1.25533204369157
11.2999999999999,1.24836333275546
11.3199999999999,1.2409537086565
11.3399999999999,1.23330051570008
11.3599999999999,1.22561438368991
11.3799999999999,1.21802860946963
11.3999999999999,1.21011060021459
11.4199999999999,1.20187961229895
11.4399999999999,1.1923097938701
11.4599999999999,1.18390086358883
11.4799999999999,1.17619900739646
11.4999999999999,1.16842415728991
11.5199999999999,1.16060001888611
11.5399999999999,1.1528681026306
11.5599999999999,1.1452745150663
11.5799999999999,1.13772725864981
11.5999999999999,1.13016931546193
11.6199999999999,1.12277996825275
11.6399999999999,1.11574261427436
11.6599999999999,1.10915079253475
11.6799999999999,1.10172845755978
11.6999999999999,1.09393764422548
11.7199999999999,1.08643217171099
11.7399999999999,1.07910612518671
11.7599999999999,1.0717691061032
11.7799999999999,1.06419537398818
11.7999999999999,1.05649706221627
11.8199999999999,1.04886451602828
11.8399999999999,1.04122924321635
11.8599999999999,1.03332743537927
11.8799999999999,1.02505322358265
11.8999999999999,1.01683059678642
11.9199999999999,1.00910331120018
11.9399999999999,1.00205272485047
11.9599999999998,0.993731736390133
11.9799999999998,0.985512713703877
11.9999999999998,0.97802503373211
12.0199999999998,0.97110597116849
12.0399999999998,0.96431914219302
12.0599999999998,0.957550064718998
12.0799999999998,0.951129866186292
12.0999999999998,0.945309923643766
12.1199999999998,0.939943062495905
12.1399999999998,0.934717419842548
12.1599999999998,0.929608512253758
12.1799999999998,0.92503183113036
12.1999999999998,0.921120139230874
12.2199999999998,0.917865076540079
12.2399999999998,0.913494263033443
12.2599999999998,0.909605468989994
12.2799999999998,0.906391677522019
12.2999999999998,0.903655537272367
12.3199999999998,0.901112502081456
12.3399999999998,0.89862624193698
12.3599999999998,0.896448629355945
12.3799999999998,0.894744606804591
12.3999999999998,0.893366686973516
12.4199999999998,0.892106393065976
12.4399999999998,0.890994834934378
12.4599999999998,0.890306741022585
12.4799999999998,0.890235744435003
12.4999999999998,0.890769242625647
12.5199999999998,0.890328715320376
