"Time [ms]","FluxLinkage(PhaseA) [Wb]","L(PhaseA,PhaseA) [mH]","Moving1.Torque [NewtonMeter]"
0,0.201272687218218,28.7534001989323,0.00081367051317596
0.1,0.201338358901292,28.7626237967424,0.116096042416488
0.2,0.201493921602417,28.7848470464017,0.240658684190349
0.3,0.20177621025108,28.8251740213062,0.361481406273513
0.4,0.202143286951961,28.8776136082362,0.470715156115252
0.5,0.20261878776246,28.9455423667164,0.572295083149271
0.6,0.203184153597974,29.0263089625148,0.684783917914779
0.7,0.203844378168334,29.1206268119868,0.813239523006178
0.8,0.204638772286437,29.234111796799,0.93242878046771
0.9,0.205516868421233,29.3595542046947,1.05466491369506
1,0.206531178457481,29.5044556874059,1.18972420476461
1.1,0.2076421956913,29.6631724925854,1.3288971506876
1.2,0.208917508350297,29.8453601088673,1.488901429214
1.3,0.210331411211422,30.0473463863284,1.66745028083533
1.4,0.211918893248425,30.2741296169057,1.84899022790492
1.5,0.213654591513299,30.5220866285329,2.0137343413964
1.6,0.215524676217518,30.7892414599243,2.16815342605842
1.7,0.217562927041618,31.0804195626549,2.36282010267875
1.8,0.219794400565419,31.3992004478432,2.62562929956065
1.9,0.222251998140112,31.7502847681408,2.85483053831662
2,0.224901109717679,32.1287283750555,3.07654448891934
2.1,0.227784118492168,32.5405855762341,3.33580095859043
2.2,0.230871472927078,32.9816350790276,3.6222817995834
2.3,0.234301594262415,33.4716513252791,3.98470559353765
2.4,0.238092104052875,34.013150569641,4.44602928524521
2.5,0.24232037639298,34.617188769051,4.97419384620397
2.6,0.24705165005693,35.2930851347604,5.54390042454494
2.7,0.252226154623005,36.0322998203052,6.02941379071527
2.8,0.257937657447416,36.8482300006869,6.63849167082958
2.9,0.264338608439592,37.7626531309732,7.76597981403562
3,0.271857131664543,38.836728622154,9.04607728736289
3.1,0.280560471631108,40.0800647849326,10.4189186236184
3.2,0.290591535567199,41.5130754913087,11.9759801008344
3.3,0.302122922401505,43.160343991303,13.9296870225815
3.4,0.315757493615353,45.107742322191,16.6216331306493
3.5,0.331831673403559,47.4036922287399,20.1800149502353
3.6,0.35016149359228,50.0250037668789,24.4006941114478
3.7,0.369322265307555,52.757781775207,28.0606112132834
3.8,0.388823388926342,55.5435769437376,29.0044675749538
3.9,0.409215728625935,58.4286020118694,27.8884324293163
4,0.429453397097328,61.3382377734822,29.5146347405935
4.1,0.449708100907423,64.2601011345409,31.1528955192215
4.2,0.469813861013792,67.1231982994662,31.3989296057373
4.3,0.489873124235994,69.9553334669915,30.5932276111036
4.4,0.509953401156667,72.8186613128977,29.6597785426611
4.5,0.530189286450181,75.7124403836094,29.0995856433375
4.6,0.550694960083435,78.6740687184152,29.3030387015086
4.7,0.571643730015258,81.6878568758087,30.6017016493133
4.8,0.592691934150506,84.7055704387435,32.7321446019155
4.9,0.613530341110548,87.6909678997803,32.8477699487253
5,0.634445680763378,90.6782681300121,29.5743212789358
5.1,0.655379707563015,93.6744154133823,29.1902821193204
5.2,0.676586006110776,96.7009762276566,30.5083250010097
5.3,0.697601929141883,99.6791687536246,31.0773879973661
5.4,0.718427920543845,102.640532667123,30.4588033804624
5.5,0.739214670399902,105.605003724582,29.5527749946686
5.6,0.759917281098873,108.592147130045,29.030815869794
5.7,0.780710903773167,111.587740513377,29.2153640900577
5.8,0.801932668774186,114.624111626819,30.4348361189301
5.9,0.82346687121141,117.654112605348,32.6243496810437
6,0.844690471119781,120.671881025176,33.0992177871252
6.1,0.865635118099876,123.691826827118,29.7108173374097
6.2,0.886624058412117,126.679270357504,29.0333480160324
6.3,0.907819877681906,129.693611077111,30.3732422090465
6.4,0.928887068719196,132.666587881815,31.0621316762095
6.5,0.949682605400907,135.638600638382,30.4743971670254
6.6,0.970323387314876,138.593805295007,29.5900616955135
6.7,0.990929469875623,141.530721662126,28.9542168290855
6.8,1.01146852911122,144.467128350018,28.6972855935214
6.9,1.03220259212557,147.443028906721,29.4130156953427
7,1.05319154116855,150.435889722542,31.320414833103
7.1,1.07419979857327,153.386912155666,31.8068512723051
7.2,1.09493534419689,156.312751855579,29.1864042614977
7.3,1.1155154722837,159.269907143559,28.4423126309622
7.4,1.13620733758534,162.247720200954,29.7656375018412
7.5,1.15676523340627,165.208250132906,30.5473867018053
7.6,1.17710971077097,168.122046606096,30.1112159388161
7.7,1.19731824083271,171.013687228879,29.2555768636417
7.8,1.21744159339905,173.899206879582,28.5832510022032
7.9,1.23752227930397,176.77970659034,28.159002704237
8,1.25777930683323,179.676971827678,28.8641903715228
8.1,1.27831044733408,182.608860487736,31.0242568663132
8.2,1.29870090860353,185.502301065279,31.6218226008329
8.3,1.31852961915017,188.328849197211,28.9835365053903
8.4,1.33800523275194,191.122728354186,27.4684551779089
8.5,1.35737487960804,193.872885042731,28.3854868343511
8.6,1.37645637934078,196.585372337881,29.1858685207951
8.7,1.39514160871859,199.244030977384,28.7710320553386
8.8,1.41343828066721,201.842060130977,27.8518739463155
8.9,1.43126723242366,204.398846044468,26.9959245032523
9,1.44863138618283,206.895371119592,26.3110360826542
9.1,1.46580158429574,209.349221979923,26.8542378925806
9.2,1.48273486269163,211.76942106938,28.5730592681905
9.3,1.49913145816886,214.136827330696,29.0837234620468
9.4,1.51484031157724,216.362322626207,26.6712653723287
9.5,1.53001171617443,218.532559909837,24.533232170321
9.6,1.54480799923204,220.647541152854,25.0224930887158
9.7,1.55918871093742,222.720391512326,25.7408164049039
9.8,1.57307411204698,224.715943609719,25.1731589839232
9.9,1.58641944111793,226.622262438866,23.9164875221953
10,1.59921026163019,228.448785933967,22.6596627673417
10.1,1.6114419259029,230.194393897931,21.5759626006338
10.2,1.62334231401826,231.889109338428,21.3417377928754
10.3,1.63497806170571,233.544697406182,22.161665782385
10.4,1.64626103411124,235.142838215049,22.4624413345111
10.5,1.65687444732124,236.659681461889,20.4535955197155
10.6,1.66655986856613,238.054475926885,18.0385898380609
10.7,1.67534438755844,239.316138895433,18.305055550322
10.8,1.68354836406937,240.493264186586,18.9518475665596
10.9,1.69112259487332,241.572969875805,18.3670202509605
11,1.69796360195891,242.55254563603,17.0500378282989
11.1,1.70408833660089,243.429269843882,15.7430407948526
11.2,1.70952667031294,244.206801490323,14.5030424204105
11.3,1.71441879738017,244.904558655146,13.9425590734324
11.4,1.71883101865629,245.53448331548,14.2705606425813
11.5,1.72283181447562,246.10754657067,14.3284867040717
11.6,1.72636263946407,246.610630903173,12.210310657659
11.7,1.72916885902438,247.018244827053,8.37632395443218
11.8,1.73122199047678,247.30712044726,6.83366919237634
11.9,1.73289409527278,247.544913550739,6.20469872042126
12,1.73429804683394,247.743824371469,4.82708841282157
12.1,1.73532375454069,247.893781315944,3.27066756427267
12.2,1.73609988705208,248.004052256849,2.15580820756388
12.3,1.7366421254131,248.078126186863,1.36765585305074
12.4,1.73695442835118,248.121096051327,0.667479233664189
12.5,1.73705890997127,248.136970528375,0.022187564409546
